# Output TH1D: 12 (proton energy )
# BinCenter,Content,BinHalfWidth,Error
50,2161,50,46.4866
150,1971,50,44.3959
250,1668,50,40.8412
350,1354,50,36.7967
450,1067,50,32.665
550,858,50,29.2916
650,710,50,26.6458
750,590,50,24.2899
850,546,50,23.3666
950,412,50,20.2978
1050,391,50,19.7737
1150,326,50,18.0555
1250,318,50,17.8326
1350,278,50,16.6733
1450,220,50,14.8324
1550,208,50,14.4222
1650,201,50,14.1774
1750,196,50,14
1850,155,50,12.4499
1950,149,50,12.2066
2050,136,50,11.6619
2150,126,50,11.225
2250,141,50,11.8743
2350,117,50,10.8167
2450,120,50,10.9545
2550,114,50,10.6771
2650,105,50,10.247
2750,86,50,9.27362
2850,109,50,10.4403
2950,100,50,10
3050,108,50,10.3923
3150,79,50,8.88819
3250,79,50,8.88819
3350,70,50,8.3666
3450,59,50,7.68115
3550,63,50,7.93725
3650,75,50,8.66025
3750,82,50,9.05539
3850,65,50,8.06226
3950,72,50,8.48528
4050,69,50,8.30662
4150,62,50,7.87401
4250,79,50,8.88819
4350,67,50,8.18535
4450,57,50,7.54983
4550,56,50,7.48331
4650,62,50,7.87401
4750,61,50,7.81025
4850,78,50,8.83176
4950,63,50,7.93725
5050,49,50,7
5150,57,50,7.54983
5250,50,50,7.07107
5350,64,50,8
5450,47,50,6.85565
5550,64,50,8
5650,61,50,7.81025
5750,47,50,6.85565
5850,54,50,7.34847
5950,57,50,7.54983
6050,65,50,8.06226
6150,52,50,7.2111
6250,69,50,8.30662
6350,52,50,7.2111
6450,51,50,7.14143
6550,46,50,6.78233
6650,37,50,6.08276
6750,40,50,6.32456
6850,57,50,7.54983
6950,43,50,6.55744
7050,49,50,7
7150,47,50,6.85565
7250,56,50,7.48331
7350,59,50,7.68115
7450,48,50,6.9282
7550,46,50,6.78233
7650,45,50,6.7082
7750,41,50,6.40312
7850,57,50,7.54983
7950,47,50,6.85565
8050,46,50,6.78233
8150,39,50,6.245
8250,37,50,6.08276
8350,39,50,6.245
8450,26,50,5.09902
8550,56,50,7.48331
8650,48,50,6.9282
8750,37,50,6.08276
8850,42,50,6.48074
8950,45,50,6.7082
9050,46,50,6.78233
9150,39,50,6.245
9250,38,50,6.16441
9350,48,50,6.9282
9450,43,50,6.55744
9550,48,50,6.9282
9650,36,50,6
9750,54,50,7.34847
9850,63,50,7.93725
9950,203,50,14.2478
10050,691,50,26.2869
10150,694,50,26.3439
10250,607,50,24.6374
10350,647,50,25.4362
10450,678,50,26.0384
10550,656,50,25.6125
10650,618,50,24.8596
10750,631,50,25.1197
10850,641,50,25.318
10950,578,50,24.0416
11050,586,50,24.2074
11150,560,50,23.6643
11250,633,50,25.1595
11350,592,50,24.3311
11450,603,50,24.5561
11550,553,50,23.516
11650,587,50,24.2281
11750,585,50,24.1868
11850,550,50,23.4521
11950,545,50,23.3452
12050,565,50,23.7697
12150,564,50,23.7487
12250,507,50,22.5167
12350,503,50,22.4277
12450,503,50,22.4277
12550,544,50,23.3238
12650,532,50,23.0651
12750,524,50,22.891
12850,523,50,22.8692
12950,515,50,22.6936
13050,527,50,22.9565
13150,517,50,22.7376
13250,514,50,22.6716
13350,488,50,22.0907
13450,454,50,21.3073
13550,529,50,23
13650,500,50,22.3607
13750,458,50,21.4009
13850,451,50,21.2368
13950,502,50,22.4054
14050,456,50,21.3542
14150,465,50,21.5639
14250,461,50,21.4709
14350,448,50,21.166
14450,429,50,20.7123
14550,456,50,21.3542
14650,435,50,20.8567
14750,439,50,20.9523
14850,379,50,19.4679
14950,441,50,21
15050,462,50,21.4942
15150,445,50,21.095
15250,398,50,19.9499
15350,441,50,21
15450,398,50,19.9499
15550,373,50,19.3132
15650,416,50,20.3961
15750,385,50,19.6214
15850,390,50,19.7484
15950,377,50,19.4165
16050,341,50,18.4662
16150,369,50,19.2094
16250,385,50,19.6214
16350,317,50,17.8045
16450,387,50,19.6723
16550,335,50,18.303
16650,358,50,18.9209
16750,360,50,18.9737
16850,330,50,18.1659
16950,343,50,18.5203
17050,334,50,18.2757
17150,336,50,18.3303
17250,310,50,17.6068
17350,278,50,16.6733
17450,310,50,17.6068
17550,299,50,17.2916
17650,313,50,17.6918
17750,286,50,16.9115
17850,293,50,17.1172
17950,308,50,17.5499
18050,280,50,16.7332
18150,289,50,17
18250,277,50,16.6433
18350,232,50,15.2315
18450,252,50,15.8745
18550,277,50,16.6433
18650,262,50,16.1864
18750,236,50,15.3623
18850,253,50,15.906
18950,254,50,15.9374
19050,229,50,15.1327
19150,243,50,15.5885
19250,232,50,15.2315
19350,215,50,14.6629
19450,236,50,15.3623
19550,232,50,15.2315
19650,205,50,14.3178
19750,193,50,13.8924
19850,204,50,14.2829
19950,200,50,14.1421
20050,202,50,14.2127
20150,178,50,13.3417
20250,192,50,13.8564
20350,194,50,13.9284
20450,196,50,14
20550,174,50,13.1909
20650,181,50,13.4536
20750,191,50,13.8203
20850,205,50,14.3178
20950,184,50,13.5647
21050,166,50,12.8841
21150,214,50,14.6287
21250,181,50,13.4536
21350,185,50,13.6015
21450,193,50,13.8924
21550,198,50,14.0712
21650,159,50,12.6095
21750,182,50,13.4907
21850,174,50,13.1909
21950,190,50,13.784
22050,179,50,13.3791
22150,190,50,13.784
22250,206,50,14.3527
22350,166,50,12.8841
22450,198,50,14.0712
22550,197,50,14.0357
22650,184,50,13.5647
22750,173,50,13.1529
22850,177,50,13.3041
22950,170,50,13.0384
23050,158,50,12.5698
23150,187,50,13.6748
23250,178,50,13.3417
23350,152,50,12.3288
23450,187,50,13.6748
23550,145,50,12.0416
23650,153,50,12.3693
23750,147,50,12.1244
23850,155,50,12.4499
23950,154,50,12.4097
24050,160,50,12.6491
24150,148,50,12.1655
24250,148,50,12.1655
24350,174,50,13.1909
24450,127,50,11.2694
24550,152,50,12.3288
24650,157,50,12.53
24750,155,50,12.4499
24850,124,50,11.1355
24950,144,50,12
25050,135,50,11.619
25150,153,50,12.3693
25250,149,50,12.2066
25350,159,50,12.6095
25450,143,50,11.9583
25550,143,50,11.9583
25650,150,50,12.2474
25750,136,50,11.6619
25850,177,50,13.3041
25950,131,50,11.4455
26050,128,50,11.3137
26150,152,50,12.3288
26250,160,50,12.6491
26350,133,50,11.5326
26450,131,50,11.4455
26550,118,50,10.8628
26650,117,50,10.8167
26750,145,50,12.0416
26850,127,50,11.2694
26950,148,50,12.1655
27050,132,50,11.4891
27150,132,50,11.4891
27250,118,50,10.8628
27350,125,50,11.1803
27450,124,50,11.1355
27550,137,50,11.7047
27650,129,50,11.3578
27750,114,50,10.6771
27850,110,50,10.4881
27950,107,50,10.3441
28050,122,50,11.0454
28150,125,50,11.1803
28250,110,50,10.4881
28350,106,50,10.2956
28450,113,50,10.6301
28550,107,50,10.3441
28650,98,50,9.89949
28750,133,50,11.5326
28850,99,50,9.94987
28950,92,50,9.59166
29050,117,50,10.8167
29150,110,50,10.4881
29250,115,50,10.7238
29350,102,50,10.0995
29450,106,50,10.2956
29550,99,50,9.94987
29650,106,50,10.2956
29750,111,50,10.5357
29850,91,50,9.53939
29950,93,50,9.64365
30050,102,50,10.0995
30150,114,50,10.6771
30250,83,50,9.11043
30350,109,50,10.4403
30450,87,50,9.32738
30550,110,50,10.4881
30650,88,50,9.38083
30750,93,50,9.64365
30850,97,50,9.84886
30950,101,50,10.0499
31050,99,50,9.94987
31150,116,50,10.7703
31250,92,50,9.59166
31350,81,50,9
31450,96,50,9.79796
31550,97,50,9.84886
31650,103,50,10.1489
31750,106,50,10.2956
31850,68,50,8.24621
31950,91,50,9.53939
32050,103,50,10.1489
32150,80,50,8.94427
32250,75,50,8.66025
32350,95,50,9.74679
32450,104,50,10.198
32550,78,50,8.83176
32650,82,50,9.05539
32750,88,50,9.38083
32850,96,50,9.79796
32950,92,50,9.59166
33050,82,50,9.05539
33150,102,50,10.0995
33250,78,50,8.83176
33350,76,50,8.7178
33450,92,50,9.59166
33550,94,50,9.69536
33650,91,50,9.53939
33750,76,50,8.7178
33850,95,50,9.74679
33950,89,50,9.43398
34050,89,50,9.43398
34150,76,50,8.7178
34250,62,50,7.87401
34350,80,50,8.94427
34450,71,50,8.42615
34550,78,50,8.83176
34650,85,50,9.21954
34750,97,50,9.84886
34850,86,50,9.27362
34950,93,50,9.64365
35050,67,50,8.18535
35150,72,50,8.48528
35250,86,50,9.27362
35350,89,50,9.43398
35450,64,50,8
35550,73,50,8.544
35650,82,50,9.05539
35750,74,50,8.60233
35850,81,50,9
35950,63,50,7.93725
36050,81,50,9
36150,73,50,8.544
36250,63,50,7.93725
36350,67,50,8.18535
36450,71,50,8.42615
36550,84,50,9.16515
36650,57,50,7.54983
36750,82,50,9.05539
36850,82,50,9.05539
36950,74,50,8.60233
37050,72,50,8.48528
37150,63,50,7.93725
37250,62,50,7.87401
37350,68,50,8.24621
37450,70,50,8.3666
37550,84,50,9.16515
37650,82,50,9.05539
37750,86,50,9.27362
37850,65,50,8.06226
37950,76,50,8.7178
38050,69,50,8.30662
38150,74,50,8.60233
38250,65,50,8.06226
38350,66,50,8.12404
38450,64,50,8
38550,66,50,8.12404
38650,59,50,7.68115
38750,65,50,8.06226
38850,59,50,7.68115
38950,63,50,7.93725
39050,72,50,8.48528
39150,52,50,7.2111
39250,71,50,8.42615
39350,79,50,8.88819
39450,49,50,7
39550,58,50,7.61577
39650,52,50,7.2111
39750,80,50,8.94427
39850,59,50,7.68115
39950,77,50,8.77496
40050,64,50,8
40150,52,50,7.2111
40250,56,50,7.48331
40350,63,50,7.93725
40450,63,50,7.93725
40550,71,50,8.42615
40650,51,50,7.14143
40750,59,50,7.68115
40850,55,50,7.4162
40950,49,50,7
41050,73,50,8.544
41150,67,50,8.18535
41250,60,50,7.74597
41350,66,50,8.12404
41450,74,50,8.60233
41550,46,50,6.78233
41650,58,50,7.61577
41750,66,50,8.12404
41850,59,50,7.68115
41950,63,50,7.93725
42050,71,50,8.42615
42150,55,50,7.4162
42250,44,50,6.63325
42350,60,50,7.74597
42450,61,50,7.81025
42550,53,50,7.28011
42650,52,50,7.2111
42750,63,50,7.93725
42850,54,50,7.34847
42950,74,50,8.60233
43050,66,50,8.12404
43150,59,50,7.68115
43250,33,50,5.74456
43350,60,50,7.74597
43450,55,50,7.4162
43550,49,50,7
43650,54,50,7.34847
43750,61,50,7.81025
43850,57,50,7.54983
43950,50,50,7.07107
44050,59,50,7.68115
44150,54,50,7.34847
44250,53,50,7.28011
44350,63,50,7.93725
44450,56,50,7.48331
44550,62,50,7.87401
44650,50,50,7.07107
44750,62,50,7.87401
44850,60,50,7.74597
44950,50,50,7.07107
45050,52,50,7.2111
45150,44,50,6.63325
45250,63,50,7.93725
45350,41,50,6.40312
45450,37,50,6.08276
45550,54,50,7.34847
45650,47,50,6.85565
45750,60,50,7.74597
45850,49,50,7
45950,45,50,6.7082
46050,42,50,6.48074
46150,45,50,6.7082
46250,46,50,6.78233
46350,39,50,6.245
46450,48,50,6.9282
46550,60,50,7.74597
46650,45,50,6.7082
46750,59,50,7.68115
46850,47,50,6.85565
46950,52,50,7.2111
47050,40,50,6.32456
47150,48,50,6.9282
47250,36,50,6
47350,55,50,7.4162
47450,43,50,6.55744
47550,48,50,6.9282
47650,61,50,7.81025
47750,28,50,5.2915
47850,38,50,6.16441
47950,56,50,7.48331
48050,42,50,6.48074
48150,44,50,6.63325
48250,49,50,7
48350,43,50,6.55744
48450,34,50,5.83095
48550,36,50,6
48650,33,50,5.74456
48750,52,50,7.2111
48850,55,50,7.4162
48950,34,50,5.83095
49050,35,50,5.91608
49150,44,50,6.63325
49250,52,50,7.2111
49350,47,50,6.85565
49450,47,50,6.85565
49550,32,50,5.65685
49650,50,50,7.07107
49750,34,50,5.83095
49850,30,50,5.47723
49950,46,50,6.78233
50050,37,50,6.08276
50150,37,50,6.08276
50250,40,50,6.32456
50350,45,50,6.7082
50450,39,50,6.245
50550,39,50,6.245
50650,45,50,6.7082
50750,37,50,6.08276
50850,40,50,6.32456
50950,40,50,6.32456
51050,44,50,6.63325
51150,37,50,6.08276
51250,36,50,6
51350,35,50,5.91608
51450,31,50,5.56776
51550,47,50,6.85565
51650,31,50,5.56776
51750,45,50,6.7082
51850,36,50,6
51950,37,50,6.08276
52050,37,50,6.08276
52150,42,50,6.48074
52250,44,50,6.63325
52350,35,50,5.91608
52450,29,50,5.38516
52550,32,50,5.65685
52650,47,50,6.85565
52750,48,50,6.9282
52850,57,50,7.54983
52950,38,50,6.16441
53050,41,50,6.40312
53150,36,50,6
53250,30,50,5.47723
53350,42,50,6.48074
53450,35,50,5.91608
53550,27,50,5.19615
53650,36,50,6
53750,39,50,6.245
53850,21,50,4.58258
53950,32,50,5.65685
54050,21,50,4.58258
54150,43,50,6.55744
54250,34,50,5.83095
54350,33,50,5.74456
54450,32,50,5.65685
54550,45,50,6.7082
54650,31,50,5.56776
54750,30,50,5.47723
54850,35,50,5.91608
54950,33,50,5.74456
55050,29,50,5.38516
55150,35,50,5.91608
55250,32,50,5.65685
55350,34,50,5.83095
55450,37,50,6.08276
55550,45,50,6.7082
55650,41,50,6.40312
55750,24,50,4.89898
55850,36,50,6
55950,35,50,5.91608
56050,36,50,6
56150,30,50,5.47723
56250,33,50,5.74456
56350,32,50,5.65685
56450,30,50,5.47723
56550,34,50,5.83095
56650,37,50,6.08276
56750,27,50,5.19615
56850,45,50,6.7082
56950,34,50,5.83095
57050,40,50,6.32456
57150,35,50,5.91608
57250,30,50,5.47723
57350,36,50,6
57450,31,50,5.56776
57550,49,50,7
57650,40,50,6.32456
57750,30,50,5.47723
57850,28,50,5.2915
57950,27,50,5.19615
58050,22,50,4.69042
58150,38,50,6.16441
58250,24,50,4.89898
58350,25,50,5
58450,33,50,5.74456
58550,33,50,5.74456
58650,33,50,5.74456
58750,46,50,6.78233
58850,26,50,5.09902
58950,25,50,5
59050,34,50,5.83095
59150,34,50,5.83095
59250,34,50,5.83095
59350,18,50,4.24264
59450,28,50,5.2915
59550,26,50,5.09902
59650,30,50,5.47723
59750,34,50,5.83095
59850,39,50,6.245
59950,23,50,4.79583
60050,35,50,5.91608
60150,22,50,4.69042
60250,33,50,5.74456
60350,29,50,5.38516
60450,24,50,4.89898
60550,29,50,5.38516
60650,29,50,5.38516
60750,28,50,5.2915
60850,25,50,5
60950,21,50,4.58258
61050,33,50,5.74456
61150,21,50,4.58258
61250,34,50,5.83095
61350,36,50,6
61450,32,50,5.65685
61550,39,50,6.245
61650,39,50,6.245
61750,28,50,5.2915
61850,22,50,4.69042
61950,38,50,6.16441
62050,39,50,6.245
62150,21,50,4.58258
62250,23,50,4.79583
62350,33,50,5.74456
62450,31,50,5.56776
62550,39,50,6.245
62650,31,50,5.56776
62750,34,50,5.83095
62850,31,50,5.56776
62950,21,50,4.58258
63050,25,50,5
63150,33,50,5.74456
63250,25,50,5
63350,19,50,4.3589
63450,30,50,5.47723
63550,25,50,5
63650,37,50,6.08276
63750,30,50,5.47723
63850,36,50,6
63950,33,50,5.74456
64050,35,50,5.91608
64150,26,50,5.09902
64250,29,50,5.38516
64350,23,50,4.79583
64450,22,50,4.69042
64550,25,50,5
64650,31,50,5.56776
64750,39,50,6.245
64850,27,50,5.19615
64950,26,50,5.09902
65050,19,50,4.3589
65150,33,50,5.74456
65250,18,50,4.24264
65350,34,50,5.83095
65450,23,50,4.79583
65550,20,50,4.47214
65650,29,50,5.38516
65750,24,50,4.89898
65850,28,50,5.2915
65950,35,50,5.91608
66050,24,50,4.89898
66150,25,50,5
66250,26,50,5.09902
66350,26,50,5.09902
66450,22,50,4.69042
66550,29,50,5.38516
66650,25,50,5
66750,25,50,5
66850,25,50,5
66950,32,50,5.65685
67050,26,50,5.09902
67150,29,50,5.38516
67250,23,50,4.79583
67350,21,50,4.58258
67450,28,50,5.2915
67550,25,50,5
67650,29,50,5.38516
67750,26,50,5.09902
67850,27,50,5.19615
67950,25,50,5
68050,22,50,4.69042
68150,19,50,4.3589
68250,35,50,5.91608
68350,25,50,5
68450,26,50,5.09902
68550,14,50,3.74166
68650,25,50,5
68750,27,50,5.19615
68850,29,50,5.38516
68950,26,50,5.09902
69050,23,50,4.79583
69150,26,50,5.09902
69250,32,50,5.65685
69350,24,50,4.89898
69450,21,50,4.58258
69550,28,50,5.2915
69650,17,50,4.12311
69750,27,50,5.19615
69850,17,50,4.12311
69950,31,50,5.56776
70050,21,50,4.58258
70150,29,50,5.38516
70250,21,50,4.58258
70350,25,50,5
70450,20,50,4.47214
70550,23,50,4.79583
70650,22,50,4.69042
70750,26,50,5.09902
70850,21,50,4.58258
70950,15,50,3.87298
71050,29,50,5.38516
71150,21,50,4.58258
71250,27,50,5.19615
71350,25,50,5
71450,22,50,4.69042
71550,21,50,4.58258
71650,26,50,5.09902
71750,22,50,4.69042
71850,27,50,5.19615
71950,28,50,5.2915
72050,11,50,3.31662
72150,25,50,5
72250,20,50,4.47214
72350,29,50,5.38516
72450,25,50,5
72550,19,50,4.3589
72650,32,50,5.65685
72750,21,50,4.58258
72850,31,50,5.56776
72950,21,50,4.58258
73050,17,50,4.12311
73150,19,50,4.3589
73250,24,50,4.89898
73350,12,50,3.4641
73450,22,50,4.69042
73550,26,50,5.09902
73650,28,50,5.2915
73750,26,50,5.09902
73850,24,50,4.89898
73950,26,50,5.09902
74050,30,50,5.47723
74150,23,50,4.79583
74250,20,50,4.47214
74350,19,50,4.3589
74450,17,50,4.12311
74550,16,50,4
74650,20,50,4.47214
74750,28,50,5.2915
74850,24,50,4.89898
74950,21,50,4.58258
75050,20,50,4.47214
75150,16,50,4
75250,24,50,4.89898
75350,24,50,4.89898
75450,20,50,4.47214
75550,23,50,4.79583
75650,17,50,4.12311
75750,15,50,3.87298
75850,15,50,3.87298
75950,21,50,4.58258
76050,16,50,4
76150,27,50,5.19615
76250,13,50,3.60555
76350,12,50,3.4641
76450,22,50,4.69042
76550,24,50,4.89898
76650,23,50,4.79583
76750,11,50,3.31662
76850,21,50,4.58258
76950,18,50,4.24264
77050,26,50,5.09902
77150,30,50,5.47723
77250,13,50,3.60555
77350,20,50,4.47214
77450,12,50,3.4641
77550,18,50,4.24264
77650,19,50,4.3589
77750,13,50,3.60555
77850,25,50,5
77950,19,50,4.3589
78050,19,50,4.3589
78150,18,50,4.24264
78250,26,50,5.09902
78350,20,50,4.47214
78450,24,50,4.89898
78550,14,50,3.74166
78650,23,50,4.79583
78750,23,50,4.79583
78850,21,50,4.58258
78950,19,50,4.3589
79050,15,50,3.87298
79150,9,50,3
79250,11,50,3.31662
79350,24,50,4.89898
79450,22,50,4.69042
79550,19,50,4.3589
79650,24,50,4.89898
79750,11,50,3.31662
79850,22,50,4.69042
79950,14,50,3.74166
80050,18,50,4.24264
80150,24,50,4.89898
80250,14,50,3.74166
80350,17,50,4.12311
80450,19,50,4.3589
80550,16,50,4
80650,21,50,4.58258
80750,17,50,4.12311
80850,11,50,3.31662
80950,14,50,3.74166
81050,20,50,4.47214
81150,18,50,4.24264
81250,15,50,3.87298
81350,23,50,4.79583
81450,20,50,4.47214
81550,13,50,3.60555
81650,16,50,4
81750,12,50,3.4641
81850,19,50,4.3589
81950,14,50,3.74166
82050,23,50,4.79583
82150,20,50,4.47214
82250,20,50,4.47214
82350,20,50,4.47214
82450,21,50,4.58258
82550,26,50,5.09902
82650,13,50,3.60555
82750,16,50,4
82850,24,50,4.89898
82950,20,50,4.47214
83050,18,50,4.24264
83150,16,50,4
83250,21,50,4.58258
83350,20,50,4.47214
83450,29,50,5.38516
83550,20,50,4.47214
83650,23,50,4.79583
83750,17,50,4.12311
83850,20,50,4.47214
83950,22,50,4.69042
84050,18,50,4.24264
84150,12,50,3.4641
84250,24,50,4.89898
84350,26,50,5.09902
84450,15,50,3.87298
84550,12,50,3.4641
84650,13,50,3.60555
84750,18,50,4.24264
84850,28,50,5.2915
84950,10,50,3.16228
85050,10,50,3.16228
85150,15,50,3.87298
85250,20,50,4.47214
85350,11,50,3.31662
85450,22,50,4.69042
85550,18,50,4.24264
85650,14,50,3.74166
85750,18,50,4.24264
85850,17,50,4.12311
85950,22,50,4.69042
86050,18,50,4.24264
86150,14,50,3.74166
86250,15,50,3.87298
86350,15,50,3.87298
86450,13,50,3.60555
86550,21,50,4.58258
86650,25,50,5
86750,19,50,4.3589
86850,18,50,4.24264
86950,16,50,4
87050,12,50,3.4641
87150,15,50,3.87298
87250,9,50,3
87350,8,50,2.82843
87450,15,50,3.87298
87550,13,50,3.60555
87650,13,50,3.60555
87750,17,50,4.12311
87850,20,50,4.47214
87950,17,50,4.12311
88050,16,50,4
88150,18,50,4.24264
88250,24,50,4.89898
88350,13,50,3.60555
88450,17,50,4.12311
88550,14,50,3.74166
88650,15,50,3.87298
88750,19,50,4.3589
88850,18,50,4.24264
88950,22,50,4.69042
89050,20,50,4.47214
89150,18,50,4.24264
89250,14,50,3.74166
89350,20,50,4.47214
89450,10,50,3.16228
89550,17,50,4.12311
89650,10,50,3.16228
89750,14,50,3.74166
89850,8,50,2.82843
89950,19,50,4.3589
90050,20,50,4.47214
90150,18,50,4.24264
90250,9,50,3
90350,15,50,3.87298
90450,13,50,3.60555
90550,11,50,3.31662
90650,18,50,4.24264
90750,15,50,3.87298
90850,11,50,3.31662
90950,13,50,3.60555
91050,13,50,3.60555
91150,14,50,3.74166
91250,14,50,3.74166
91350,23,50,4.79583
91450,14,50,3.74166
91550,14,50,3.74166
91650,19,50,4.3589
91750,19,50,4.3589
91850,10,50,3.16228
91950,8,50,2.82843
92050,14,50,3.74166
92150,13,50,3.60555
92250,16,50,4
92350,7,50,2.64575
92450,15,50,3.87298
92550,13,50,3.60555
92650,17,50,4.12311
92750,14,50,3.74166
92850,14,50,3.74166
92950,14,50,3.74166
93050,12,50,3.4641
93150,14,50,3.74166
93250,22,50,4.69042
93350,9,50,3
93450,11,50,3.31662
93550,10,50,3.16228
93650,12,50,3.4641
93750,5,50,2.23607
93850,15,50,3.87298
93950,7,50,2.64575
94050,11,50,3.31662
94150,15,50,3.87298
94250,21,50,4.58258
94350,29,50,5.38516
94450,9,50,3
94550,12,50,3.4641
94650,6,50,2.44949
94750,12,50,3.4641
94850,15,50,3.87298
94950,15,50,3.87298
95050,10,50,3.16228
95150,15,50,3.87298
95250,13,50,3.60555
95350,18,50,4.24264
95450,15,50,3.87298
95550,17,50,4.12311
95650,15,50,3.87298
95750,17,50,4.12311
95850,12,50,3.4641
95950,10,50,3.16228
96050,15,50,3.87298
96150,18,50,4.24264
96250,10,50,3.16228
96350,15,50,3.87298
96450,16,50,4
96550,21,50,4.58258
96650,8,50,2.82843
96750,15,50,3.87298
96850,12,50,3.4641
96950,16,50,4
97050,11,50,3.31662
97150,14,50,3.74166
97250,15,50,3.87298
97350,20,50,4.47214
97450,13,50,3.60555
97550,17,50,4.12311
97650,14,50,3.74166
97750,19,50,4.3589
97850,15,50,3.87298
97950,11,50,3.31662
98050,13,50,3.60555
98150,14,50,3.74166
98250,18,50,4.24264
98350,17,50,4.12311
98450,14,50,3.74166
98550,14,50,3.74166
98650,15,50,3.87298
98750,15,50,3.87298
98850,14,50,3.74166
98950,6,50,2.44949
99050,15,50,3.87298
99150,10,50,3.16228
99250,7,50,2.64575
99350,13,50,3.60555
99450,12,50,3.4641
99550,9,50,3
99650,12,50,3.4641
99750,11,50,3.31662
99850,17,50,4.12311
99950,8,50,2.82843
